Time (s),Voltage (V)
0,4.063844229
1,4.051277305
2,4.046511274
3,4.043001269
4,4.040131626
5,4.037656692
6,4.03545652
7,4.03345918
8,4.03161914
9,4.029901704
10,4.028287684
11,4.026773487
12,4.025318202
13,4.023930703
14,4.022599258
15,4.021317228
16,4.020079136
17,4.018880423
18,4.017718323
19,4.016588436
20,4.01550039
21,4.014415789
22,4.013371855
23,4.012335883
24,4.011339101
25,4.010343824
26,4.00938397
27,4.008425073
28,4.0074975
29,4.006570424
30,4.005671328
31,4.004772516
32,4.003898628
33,4.003025112
34,4.002173749
35,4.001323193
36,4.000501493
37,3.999679792
38,3.998858092
39,3.998037968
40,3.997248706
41,3.996459445
42,3.995670183
43,3.994893202
44,3.994130189
45,3.993367177
46,3.992604164
47,3.991861422
48,3.991121259
49,3.990381097
50,3.989647124
51,3.988927164
52,3.988207205
53,3.987487246
54,3.986780383
55,3.986078473
56,3.985376563
57,3.984677007
58,3.983991348
59,3.983305689
60,3.98262003
61,3.981942687
62,3.981271769
63,3.980600851
64,3.979929933
65,3.979272262
66,3.978614816
67,3.977957369
68,3.977304921
69,3.97665989
70,3.976014858
71,3.975369826
72,3.974738663
73,3.974110505
74,3.973482346
75,3.972854188
76,3.97222603
77,3.971597872
78,3.970969713
79,3.970354879
80,3.969746897
81,3.969138914
82,3.968530932
83,3.967922949
84,3.967314966
85,3.966706984
86,3.966107957
87,3.965517925
88,3.964927893
89,3.964337861
90,3.963747829
91,3.963157797
92,3.962567765
93,3.961983207
94,3.961409396
95,3.960835586
96,3.960261776
97,3.959687966
98,3.959114156
99,3.958540346
100,3.957969146
101,3.957410168
102,3.95685119
103,3.956292212
104,3.955733234
105,3.955174256
106,3.954615278
107,3.954056499
108,3.953511234
109,3.952965968
110,3.952420703
111,3.951875438
112,3.951330172
113,3.950784907
114,3.950239642
115,3.949705267
116,3.949172769
117,3.948640272
118,3.948107774
119,3.947575276
120,3.947042778
121,3.94651028
122,3.945986041
123,3.945465485
124,3.94494493
125,3.944424375
126,3.943903819
127,3.943383264
128,3.942862708
129,3.942348104
130,3.941838777
131,3.94132945
132,3.940820123
133,3.940310796
134,3.93980147
135,3.939292143
136,3.938786724
137,3.938288002
138,3.93778928
139,3.937290558
140,3.936791835
141,3.936293113
142,3.935794391
143,3.935297749
144,3.93480907
145,3.934320391
146,3.933831712
147,3.933343033
148,3.932854354
149,3.932365675
150,3.931877431
151,3.931398292
152,3.930919153
153,3.930440014
154,3.929960875
155,3.929481735
156,3.929002596
157,3.928523457
158,3.92805617
159,3.927590438
160,3.927124705
161,3.926658972
162,3.92619324
163,3.925727507
164,3.925261774
165,3.924796042
166,3.924330309
167,3.923864576
168,3.923398844
169,3.922933111
170,3.922467378
171,3.922001646
172,3.921545201
173,3.921096021
174,3.920646841
175,3.920197661
176,3.919748481
177,3.919299301
178,3.918850121
179,3.918400941
180,3.917951761
181,3.917502581
182,3.917053401
183,3.916604221
184,3.916155041
185,3.915705861
186,3.915260295
187,3.914826287
188,3.914392279
189,3.913958271
190,3.913524263
191,3.913090256
192,3.912656248
193,3.91222224
194,3.911788232
195,3.911354224
196,3.910920216
197,3.910486209
198,3.910052201
199,3.909618193
200,3.909184185
201,3.908762972
202,3.908342945
203,3.907922918
204,3.907502891
205,3.907082863
206,3.906662836
207,3.906242809
208,3.905822782
209,3.905402755
210,3.904982728
211,3.904562701
212,3.904142673
213,3.903722646
214,3.903302619
215,3.902890258
216,3.902483176
217,3.902076094
218,3.901669012
219,3.90126193
220,3.900854848
221,3.900447766
222,3.900040684
223,3.899633602
224,3.89922652
225,3.898819438
226,3.898412356
227,3.898005274
228,3.897598192
229,3.897194351
230,3.896799305
231,3.896404259
232,3.896009213
233,3.895614167
234,3.89521912
235,3.894824074
236,3.894429028
237,3.894033982
238,3.893638936
239,3.89324389
240,3.892848844
241,3.892453798
242,3.892058751
243,3.891663705
244,3.891279273
245,3.890895442
246,3.890511612
247,3.890127782
248,3.889743952
249,3.889360121
250,3.888976291
251,3.888592461
252,3.888208631
253,3.887824801
254,3.88744097
255,3.88705714
256,3.88667331
257,3.88628948
258,3.8859122
259,3.885538879
260,3.885165558
261,3.884792237
262,3.884418916
263,3.884045595
264,3.883672275
265,3.883298954
266,3.882925633
267,3.882552312
268,3.882178991
269,3.88180567
270,3.881432349
271,3.881059028
272,3.880688665
273,3.88032519
274,3.879961716
275,3.879598241
276,3.879234766
277,3.878871292
278,3.878507817
279,3.878144343
280,3.877780868
281,3.877417394
282,3.877053919
283,3.876690445
284,3.87632697
285,3.875963496
286,3.875600021
287,3.875245627
288,3.874891442
289,3.874537258
290,3.874183074
291,3.873828889
292,3.873474705
293,3.873120521
294,3.872766336
295,3.872412152
296,3.872057968
297,3.871703783
298,3.871349599
299,3.870995415
300,3.87064123
301,3.870292754
302,3.869947291
303,3.869601829
304,3.869256367
305,3.868910904
306,3.868565442
307,3.86821998
308,3.867874517
309,3.867529055
310,3.867183593
311,3.86683813
312,3.866492668
313,3.866147206
314,3.865801743
315,3.865459037
316,3.865121889
317,3.864784741
318,3.864447593
319,3.864110445
320,3.863773298
321,3.86343615
322,3.863099002
323,3.862761854
324,3.862424706
325,3.862087559
326,3.861750411
327,3.861413263
328,3.861076115
329,3.860739033
330,3.860409636
331,3.860080239
332,3.859750841
333,3.859421444
334,3.859092047
335,3.85876265
336,3.858433253
337,3.858103856
338,3.857774458
339,3.857445061
340,3.857115664
341,3.856786267
342,3.85645687
343,3.856127473
344,3.855803219
345,3.855481325
346,3.855159431
347,3.854837537
348,3.854515643
349,3.85419375
350,3.853871856
351,3.853549962
352,3.853228068
353,3.852906174
354,3.85258428
355,3.852262386
356,3.851940493
357,3.851618599
358,3.851299231
359,3.850984307
360,3.850669382
361,3.850354457
362,3.850039533
363,3.849724608
364,3.849409684
365,3.849094759
366,3.848779834
367,3.84846491
368,3.848149985
369,3.84783506
370,3.847520136
371,3.847205211
372,3.84689056
373,3.846582559
374,3.846274557
375,3.845966556
376,3.845658555
377,3.845350553
378,3.845042552
379,3.84473455
380,3.844426549
381,3.844118547
382,3.843810546
383,3.843502544
384,3.843194543
385,3.842886541
386,3.84257854
387,3.84227495
388,3.841973104
389,3.841671258
390,3.841369413
391,3.841067567
392,3.840765722
393,3.840463876
394,3.84016203
395,3.839860185
396,3.839558339
397,3.839256494
398,3.838954648
399,3.838652802
400,3.838350957
401,3.838051507
402,3.837755747
403,3.837459988
404,3.837164229
405,3.83686847
406,3.83657271
407,3.836276951
408,3.835981192
409,3.835685432
410,3.835389673
411,3.835093914
412,3.834798155
413,3.834502395
414,3.834206636
415,3.833911271
416,3.833621096
417,3.83333092
418,3.833040745
419,3.83275057
420,3.832460394
421,3.832170219
422,3.831880044
423,3.831589868
424,3.831299693
425,3.831009518
426,3.830719342
427,3.830429167
428,3.830139876
429,3.829854615
430,3.829569355
431,3.829284095
432,3.828998834
433,3.828713574
434,3.828428313
435,3.828143053
436,3.827857793
437,3.827572532
438,3.827287272
439,3.827002011
440,3.826716751
441,3.826432878
442,3.826152413
443,3.825871949
444,3.825591484
445,3.82531102
446,3.825030555
447,3.824750091
448,3.824469626
449,3.824189162
450,3.823908697
451,3.823628232
452,3.823347768
453,3.823067303
454,3.82278859
455,3.82251252
456,3.82223645
457,3.821960379
458,3.821684309
459,3.821408238
460,3.821132168
461,3.820856097
462,3.820580027
463,3.820303956
464,3.820027886
465,3.819751816
466,3.819475745
467,3.819201956
468,3.818930376
469,3.818658796
470,3.818387216
471,3.818115636
472,3.817844057
473,3.817572477
474,3.817300897
475,3.817029317
476,3.816757737
477,3.816486158
478,3.816214578
479,3.815942998
480,3.815673741
481,3.815405924
482,3.815138108
483,3.814870291
484,3.814602475
485,3.814334658
486,3.814066841
487,3.813799025
488,3.813531208
489,3.813263391
490,3.812995575
491,3.812727758
492,3.812459942
493,3.812195126
494,3.811931439
495,3.811667752
496,3.811404065
497,3.811140378
498,3.810876691
499,3.810613004
500,3.810349317
501,3.81008563
502,3.809821943
503,3.809558256
504,3.809294569
505,3.809030882
506,3.808770049
507,3.808509775
508,3.808249501
509,3.807989227
510,3.807728953
511,3.80746868
512,3.807208406
513,3.806948132
514,3.806687858
515,3.806427584
516,3.80616731
517,3.805907748
518,3.805650511
519,3.805393274
520,3.805136036
521,3.804878799
522,3.804621562
523,3.804364324
524,3.804107087
525,3.80384985
526,3.803592612
527,3.803335375
528,3.803078138
529,3.802822698
530,3.802568303
531,3.802313907
532,3.802059511
533,3.801805116
534,3.80155072
535,3.801296324
536,3.801041928
537,3.800787533
538,3.800533137
539,3.800278741
540,3.800024431
541,3.799772766
542,3.799521102
543,3.799269437
544,3.799017773
545,3.798766109
546,3.798514444
547,3.79826278
548,3.798011115
549,3.797759451
550,3.797507787
551,3.797256122
552,3.797005517
553,3.796756318
554,3.796507119
555,3.79625792
556,3.79600872
557,3.795759521
558,3.795510322
559,3.795261123
560,3.795011924
561,3.794762725
562,3.794513526
563,3.794264327
564,3.794017078
565,3.793770234
566,3.79352339
567,3.793276545
568,3.793029701
569,3.792782857
570,3.792536013
571,3.792289169
572,3.792042325
573,3.791795481
574,3.791548637
575,3.791302267
576,3.79105752
577,3.790812772
578,3.790568024
579,3.790323276
580,3.790078528
581,3.789833781
582,3.789589033
583,3.789344285
584,3.789099537
585,3.788854789
586,3.788610041
587,3.788366542
588,3.788123793
589,3.787881044
590,3.787638294
591,3.787395545
592,3.787152796
593,3.786910046
594,3.786667297
595,3.786424548
596,3.786181799
597,3.785939049
598,3.785696339
599,3.785455288
600,3.785214237
601,3.784973185
602,3.784732134
603,3.784491083
604,3.784250031
605,3.78400898
606,3.783767929
607,3.783526877
608,3.783285826
609,3.783044775
610,3.782804447
611,3.782565115
612,3.782325782
613,3.782086449
614,3.781847116
615,3.781607783
616,3.78136845
617,3.781129117
618,3.780889784
619,3.780650451
620,3.780411118
621,3.780171785
622,3.779933548
623,3.779695551
624,3.779457554
625,3.779219558
626,3.778981561
627,3.778743564
628,3.778505567
629,3.778267571
630,3.778029574
631,3.777791577
632,3.77755358
633,3.777315903
634,3.777079368
635,3.776842834
636,3.7766063
637,3.776369766
638,3.776133231
639,3.775896697
640,3.775660163
641,3.775423629
642,3.775187094
643,3.77495056
644,3.774714026
645,3.774478206
646,3.774242831
647,3.774007456
648,3.773772081
649,3.773536706
650,3.773301331
651,3.773065956
652,3.772830581
653,3.772595206
654,3.772359831
655,3.772124456
656,3.7718891
657,3.771655034
658,3.771420969
659,3.771186903
660,3.770952837
661,3.770718771
662,3.770484705
663,3.77025064
664,3.770016574
665,3.769782508
666,3.769548442
667,3.769314376
668,3.76908069
669,3.768847541
670,3.768614392
671,3.768381243
672,3.768148094
673,3.767914945
674,3.767681796
675,3.767448647
676,3.767215498
677,3.766982349
678,3.7667492
679,3.766516051
680,3.766283752
681,3.766051651
682,3.76581955
683,3.765587449
684,3.765355348
685,3.765123247
686,3.764891145
687,3.764659044
688,3.764426943
689,3.764194842
690,3.763962741
691,3.763730855
692,3.763499781
693,3.763268706
694,3.763037631
695,3.762806556
696,3.762575481
697,3.762344406
698,3.762113331
699,3.761882256
700,3.761651182
701,3.761420107
702,3.761189032
703,3.760958533
704,3.760728404
705,3.760498276
706,3.760268147
707,3.760038019
708,3.75980789
709,3.759577762
710,3.759347633
711,3.759117504
712,3.758887376
713,3.758657247
714,3.758427126
715,3.758197969
716,3.757968812
717,3.757739655
718,3.757510498
719,3.757281341
720,3.757052184
721,3.756823027
722,3.75659387
723,3.756364714
724,3.756135557
725,3.7559064
726,3.755677608
727,3.755449351
728,3.755221093
729,3.754992836
730,3.754764579
731,3.754536322
732,3.754308065
733,3.754079808
734,3.753851551
735,3.753623294
736,3.753395037
737,3.753166779
738,3.752939334
739,3.752712087
740,3.75248484
741,3.752257592
742,3.752030345
743,3.751803098
744,3.751575851
745,3.751348604
746,3.751121356
747,3.750894109
748,3.750666862
749,3.750439792
750,3.75021342
751,3.749987049
752,3.749760677
753,3.749534305
754,3.749307934
755,3.749081562
756,3.748855191
757,3.748628819
758,3.748402447
759,3.748176076
760,3.747949704
761,3.747723989
762,3.74749871
763,3.74727343
764,3.747048151
765,3.746822872
766,3.746597593
767,3.746372314
768,3.746147035
769,3.745921756
770,3.745696476
771,3.745471197
772,3.745245918
773,3.745021434
774,3.74479695
775,3.744572466
776,3.744347982
777,3.744123499
778,3.743899015
779,3.743674531
780,3.743450047
781,3.743225564
782,3.74300108
783,3.742777089
784,3.74255349
785,3.742329891
786,3.742106292
787,3.741882692
788,3.741659093
789,3.741435494
790,3.741211895
791,3.740988296
792,3.740764822
793,3.740542007
794,3.740319192
795,3.740096376
796,3.739873561
797,3.739650746
798,3.739427931
799,3.739205116
800,3.7389823
801,3.738759485
802,3.738537307
803,3.738315327
804,3.738093347
805,3.737871367
806,3.737649387
807,3.737427407
808,3.737205426
809,3.736983446
810,3.736761466
811,3.736539779
812,3.736318602
813,3.736097424
814,3.735876246
815,3.735655069
816,3.735433891
817,3.735212713
818,3.734991536
819,3.734770358
820,3.73454918
821,3.734328785
822,3.734108416
823,3.733888047
824,3.733667677
825,3.733447308
826,3.733226939
827,3.733006569
828,3.7327862
829,3.732565831
830,3.732345918
831,3.732126349
832,3.731906779
833,3.731687209
834,3.73146764
835,3.73124807
836,3.731028501
837,3.730808931
838,3.730589361
839,3.730369937
840,3.730151203
841,3.72993247
842,3.729713736
843,3.729495003
844,3.729276269
845,3.729057535
846,3.728838802
847,3.728620068
848,3.728401335
849,3.728183228
850,3.727965303
851,3.727747377
852,3.727529451
853,3.727311526
854,3.7270936
855,3.726875674
856,3.726657749
857,3.726439823
858,3.726222199
859,3.726005067
860,3.725787936
861,3.725570805
862,3.725353674
863,3.725136543
864,3.724919412
865,3.724702281
866,3.72448515
867,3.724268019
868,3.724051707
869,3.72383541
870,3.723619114
871,3.723402817
872,3.723186521
873,3.722970224
874,3.722753928
875,3.722537631
876,3.722321334
877,3.722105508
878,3.721890015
879,3.721674522
880,3.721459029
881,3.721243536
882,3.721028044
883,3.720812551
884,3.720597058
885,3.720381565
886,3.720166217
887,3.719951497
888,3.719736777
889,3.719522057
890,3.719307338
891,3.719092618
892,3.718877898
893,3.718663178
894,3.718448458
895,3.718233738
896,3.718019659
897,3.71780575
898,3.71759184
899,3.717377931
900,3.717164022
901,3.716950113
902,3.716736203
903,3.716522294
904,3.716308385
905,3.7160948
906,3.715881718
907,3.715668636
908,3.715455554
909,3.715242472
910,3.715029389
911,3.714816307
912,3.714603225
913,3.714390143
914,3.71417706
915,3.713964712
916,3.713752368
917,3.713540023
918,3.713327679
919,3.713115334
920,3.712902989
921,3.712690645
922,3.7124783
923,3.712265956
924,3.712054031
925,3.711842388
926,3.711630746
927,3.711419103
928,3.711207461
929,3.710995818
930,3.710784176
931,3.710572533
932,3.710360891
933,3.710149417
934,3.709938618
935,3.709727819
936,3.70951702
937,3.709306221
938,3.709095421
939,3.708884622
940,3.708673823
941,3.708463024
942,3.708252224
943,3.708042105
944,3.707832152
945,3.707622198
946,3.707412245
947,3.707202292
948,3.706992339
949,3.706782385
950,3.706572432
951,3.706362479
952,3.706152757
953,3.705943375
954,3.705733993
955,3.705524611
956,3.705315229
957,3.705105847
958,3.704896465
959,3.704687083
960,3.704477701
961,3.704268324
962,3.704059526
963,3.703850727
964,3.703641928
965,3.70343313
966,3.703224331
967,3.703015532
968,3.702806734
969,3.702597935
970,3.702389136
971,3.702180972
972,3.701973211
973,3.70176545
974,3.701557689
975,3.701349928
976,3.701142167
977,3.700934406
978,3.700726645
979,3.700518885
980,3.700311267
981,3.700104173
982,3.69989708
983,3.699689986
984,3.699482893
985,3.699275799
986,3.699068706
987,3.698861612
988,3.698654519
989,3.698447425
990,3.698240758
991,3.698034186
992,3.697827615
993,3.697621043
994,3.697414471
995,3.6972079
996,3.697001328
997,3.696794756
998,3.696588185
999,3.696381902
1000,3.69617602
1001,3.695970138
1002,3.695764256
1003,3.695558374
1004,3.695352492
1005,3.69514661
1006,3.694940728
1007,3.694734846
1008,3.694528981
1009,3.694323899
1010,3.694118816
1011,3.693913733
1012,3.69370865
1013,3.693503567
1014,3.693298484
1015,3.693093402
1016,3.692888319
1017,3.692683236
1018,3.692478528
1019,3.692274046
1020,3.692069564
1021,3.691865082
1022,3.6916606
1023,3.691456117
1024,3.691251635
1025,3.691047153
1026,3.690842671
1027,3.690638306
1028,3.690434338
1029,3.69023037
1030,3.690026402
1031,3.689822434
1032,3.689618467
1033,3.689414499
1034,3.689210531
1035,3.689006563
1036,3.688802595
1037,3.68859922
1038,3.688395966
1039,3.688192712
1040,3.687989458
1041,3.687786204
1042,3.68758295
1043,3.687379696
1044,3.687176442
1045,3.686973188
1046,3.686770252
1047,3.686567733
1048,3.686365214
1049,3.686162696
1050,3.685960177
1051,3.685757658
1052,3.685555139
1053,3.68535262
1054,3.685150101
1055,3.684947595
1056,3.68474543
1057,3.684543265
1058,3.6843411
1059,3.684138934
1060,3.683936769
1061,3.683734604
1062,3.683532439
1063,3.683330273
1064,3.683128108
1065,3.682926174
1066,3.68272437
1067,3.682522566
1068,3.682320763
1069,3.682118959
1070,3.681917155
1071,3.681715352
1072,3.681513548
1073,3.681311744
1074,3.681110187
1075,3.680909405
1076,3.680708622
1077,3.68050784
1078,3.680307058
1079,3.680106275
1080,3.679905493
1081,3.67970471
1082,3.679503928
1083,3.679303146
1084,3.679102809
1085,3.678902554
1086,3.6787023
1087,3.678502045
1088,3.678301791
1089,3.678101536
1090,3.677901282
1091,3.677701027
1092,3.677500773
1093,3.67730063
1094,3.677100626
1095,3.676900622
1096,3.676700618
1097,3.676500614
1098,3.67630061
1099,3.676100606
1100,3.675900602
1101,3.675700598
1102,3.675500619
1103,3.675301114
1104,3.675101608
1105,3.674902103
1106,3.674702598
1107,3.674503093
1108,3.674303588
1109,3.674104083
1110,3.673904578
1111,3.673705072
1112,3.673506042
1113,3.673307265
1114,3.673108488
1115,3.672909711
1116,3.672710933
1117,3.672512156
1118,3.672313379
1119,3.672114602
1120,3.671915825
1121,3.671717156
1122,3.671518804
1123,3.671320451
1124,3.671122099
1125,3.670923747
1126,3.670725394
1127,3.670527042
1128,3.67032869
1129,3.670130337
1130,3.669931985
1131,3.669733828
1132,3.669535703
1133,3.669337578
1134,3.669139454
1135,3.668941329
1136,3.668743204
1137,3.668545079
1138,3.668346955
1139,3.66814883
1140,3.667950934
1141,3.667753305
1142,3.667555677
1143,3.667358048
1144,3.667160419
1145,3.666962791
1146,3.666765162
1147,3.666567534
1148,3.666369905
1149,3.666172316
1150,3.665975304
1151,3.665778292
1152,3.66558128
1153,3.665384268
1154,3.665187256
1155,3.664990244
1156,3.664793232
1157,3.66459622
1158,3.664399208
1159,3.664202402
1160,3.664005699
1161,3.663808996
1162,3.663612293
1163,3.663415589
1164,3.663218886
1165,3.663022183
1166,3.66282548
1167,3.662628777
1168,3.662432131
1169,3.662235638
1170,3.662039146
1171,3.661842653
1172,3.66164616
1173,3.661449668
1174,3.661253175
1175,3.661056683
1176,3.66086019
1177,3.660663697
1178,3.660467593
